   0.9803519  -0.1972494   0.1972494   0.9803519      22.751      -0.799
   0.9803793  -0.1979111   0.1979111   0.9803793       6.676       1.969
   0.9796340  -0.1974376   0.1974376   0.9796341      13.633      -3.543
