# AreTomo Alignment / Priims bprmMn
# RawSize = 2032 2032 90
# NumPatches = 16
# DarkFrame =     0    0   -66.00
# DarkFrame =     1    0   -64.50
# DarkFrame =    88    0    66.00
# DarkFrame =    89    0    67.50
# AlphaOffset =     0.00
# BetaOffset =     0.00
# SEC     ROT         GMAG       TX          TY      SMEAN     SFIT    SCALE     BASE     TILT
    0   -12.6611    1.00000     24.786     -2.677     1.00     1.00     1.00     0.00    -61.50
    1   -12.6611    1.00000     34.451     -8.599     1.00     1.00     1.00     0.00    -60.00
    2   -12.6611    1.00000      9.951     -7.690     1.00     1.00     1.00     0.00    -58.50
    3   -12.6611    1.00000      5.538     -2.504     1.00     1.00     1.00     0.00    -57.00
# Local Alignment
   0   0  -558.42   -802.00   -100.07     24.43   1.0
   0   1  -274.86   -757.91    -36.95     11.98   1.0
   0   2    19.88   -701.35     29.18     -5.75   1.0
   0   3   233.10   -680.25     55.29    -14.05   1.0
   0   4  -485.74   -308.27    -33.72     10.06   1.0
   0   5  -201.52   -264.31    -10.65      2.03   1.0
