  -0.1813379  -0.9834202   0.9834202  -0.1813379     -58.170      69.816
  -0.1809102  -0.9834990   0.9834990  -0.1809102      -9.674      79.619
  -0.1805171  -0.9835712   0.9835712  -0.1805171       4.541      79.025
  -0.1801534  -0.9836379   0.9836379  -0.1801534     -46.627      69.504
  -0.1798153  -0.9836997   0.9836997  -0.1798153     -52.616     126.665
  -0.1794993  -0.9837576   0.9837576  -0.1794993      41.766      65.513
  -0.1792029  -0.9838116   0.9838116  -0.1792029      11.504     -15.320
  -0.1789233  -0.9838625   0.9838625  -0.1789233     -12.476      98.261
  -0.1786588  -0.9839106   0.9839106  -0.1786588       2.299      91.386
  -0.1784075  -0.9839560   0.9839560  -0.1784075     -37.863      88.325
  -0.1781678  -0.9839995   0.9839995  -0.1781678     -88.610      90.620
  -0.1779384  -0.9840410   0.9840410  -0.1779384    -102.190      83.283
  -0.1777183  -0.9840808   0.9840808  -0.1777183     -22.453      86.816
  -0.1775061  -0.9841191   0.9841191  -0.1775061      17.125      65.607
  -0.1773012  -0.9841561   0.9841561  -0.1773012     -65.927      77.793
  -0.1771025  -0.9841918   0.9841918  -0.1771025       1.218      71.478
  -0.1769096  -0.9842265   0.9842265  -0.1769096     -42.643      73.247
  -0.1767214  -0.9842603   0.9842603  -0.1767214     -78.566      79.858
  -0.1765377  -0.9842933   0.9842933  -0.1765377     -85.838      68.519
  -0.1763575  -0.9843256   0.9843256  -0.1763575     -17.545      74.984
  -0.1761805  -0.9843573   0.9843573  -0.1761805     -80.726      77.732
  -0.1760061  -0.9843884   0.9843884  -0.1760061     -43.316      70.029
  -0.1758340  -0.9844192   0.9844192  -0.1758340    -104.765      71.977
  -0.1756634  -0.9844496   0.9844496  -0.1756634     -55.972      76.499
  -0.1754945  -0.9844798   0.9844798  -0.1754945     -57.696      72.993
  -0.1753260  -0.9845098   0.9845098  -0.1753260    -109.072      70.199
  -0.1751583  -0.9845397   0.9845397  -0.1751583     -49.005      71.521
  -0.1749905  -0.9845695   0.9845695  -0.1749905     -54.692      69.368
  -0.1748224  -0.9845994   0.9845994  -0.1748224     -84.371      70.581
  -0.1746535  -0.9846294   0.9846294  -0.1746535    -104.100      60.317
  -0.1744833  -0.9846595   0.9846595  -0.1744833    -110.314      73.068
  -0.1743116  -0.9846899   0.9846899  -0.1743116    -115.617      69.957
  -0.1741377  -0.9847207   0.9847207  -0.1741377     -75.049      72.109
  -0.1739613  -0.9847519   0.9847519  -0.1739613     -17.703      73.045
  -0.1737819  -0.9847836   0.9847836  -0.1737819     -96.123      74.426
  -0.1735989  -0.9848158   0.9848158  -0.1735989     -64.100      73.052
  -0.1734118  -0.9848487   0.9848487  -0.1734118     -89.052      68.352
  -0.1732199  -0.9848825   0.9848825  -0.1732199      45.639      63.217
  -0.1730226  -0.9849173   0.9849173  -0.1730226    -139.543      72.652
  -0.1728190  -0.9849530   0.9849530  -0.1728190    -115.510      77.211
  -0.1726084  -0.9849899   0.9849899  -0.1726084    -126.855      69.610
  -0.1723901  -0.9850281   0.9850281  -0.1723901    -126.473      71.374
  -0.1721629  -0.9850678   0.9850678  -0.1721629    -140.129     -50.445
  -0.1719255  -0.9851094   0.9851094  -0.1719255    -161.572    -230.375
  -0.1716768  -0.9851528   0.9851528  -0.1716768    -183.937    -364.267
  -0.1714152  -0.9851983   0.9851983  -0.1714152     387.754    -209.764
  -0.1711391  -0.9852463   0.9852463  -0.1711391     339.685    -197.760
  -0.1708465  -0.9852971   0.9852971  -0.1708465     322.348    -199.255
  -0.1705350  -0.9853510   0.9853510  -0.1705350     296.133    -189.986
  -0.1702020  -0.9854085   0.9854085  -0.1702020     362.970    -194.166
  -0.1698440  -0.9854703   0.9854703  -0.1698440     316.236    -196.757
  -0.1694575  -0.9855369   0.9855369  -0.1694575     171.942    -204.708
  -0.1690377  -0.9856090   0.9856090  -0.1690377     246.479    -202.191
  -0.1685790  -0.9856875   0.9856875  -0.1685790     337.318    -199.936
  -0.1680742  -0.9857737   0.9857737  -0.1680742     317.013    -195.474
  -0.1675148  -0.9858690   0.9858690  -0.1675148     197.105     -88.177
  -0.1668900  -0.9859749   0.9859749  -0.1668900      78.646    -122.189
  -0.1661851  -0.9860939   0.9860939  -0.1661851     108.660    -146.466
  -0.1653824  -0.9862289   0.9862289  -0.1653824     213.511    -120.539
