-52.24
-50.24
-48.24
-46.24
-44.24
-42.24
-40.24
-38.24
-36.24
-34.24
-32.24
-30.24
-28.24
-26.24
-24.24
-22.24
-20.24
-18.24
-16.24
-14.24
-12.24
-10.24
-8.24
-6.24
-4.24
-2.24
-0.24
1.76
3.76
5.76
7.76
9.76
11.76
13.76
15.76
17.76
19.76
21.76
23.76
25.76
27.76
29.76
31.76
33.76
35.76
37.76
39.76
41.76
43.76
45.76
47.76
49.76
51.76
53.76
55.76
57.76
59.76
61.76
63.76
